Wavelength,Amplitude
nm,mV
835,-3.508
836,-8.115
837,-2.87
838,-7.178
839,-0.386
840,-5.661
841,-13.722
842,3.075
843,10.803
844,-3.589
845,1.023
846,0.844
847,-0.739
848,5.103
849,0.357
850,6.019
851,3.251
852,0.881
853,-1.033
854,5.584
855,4.853
856,-10.021
857,3.446
858,-0.732
859,1.303
860,6.286
861,-2.95
862,0.661
863,-6.767
864,-5.988
865,4.241
866,0.32
867,-3.433
868,3.876
869,-5.746
870,5.574
871,-2.862
872,-3.329
873,-2.653
874,6.415
875,-4.152
876,-0.303
877,0.38
878,2.04
879,4.052
880,-7.522
881,-0.528
882,-9.012
883,-3.008
884,-2.548
885,-0.537
886,-2.021
887,-0.734
888,-2.164
889,4.4
890,-1.316
891,-2.287
892,-4.591
893,-6.433
894,4.583
895,-6.525
896,4.831
897,-1.297
898,0.539
899,-0.518
900,-13.665
901,2.414
902,-0.013
903,-8.333
904,-4.286
905,-3.024
906,6.314
907,4.494
908,0.78
909,3.122
910,-0.279
911,-4.572
912,-3.592
913,5.103
914,9.903
915,7.516
916,-0.759
917,2.67
918,-5.155
919,1.911
920,-5.5
921,8.157
922,-1.378
923,-4.685
924,-5.584
925,5.927
926,-2.818
927,-3.162
928,0.872
929,6.942
930,-0.89
931,-1.632
932,3.09
933,0.207
934,3.296
935,1.322
936,-2.099
937,3.586
938,3.518
939,0.52
940,-0.278
941,-4.213
942,-4.347
943,-6.457
944,-1.531
945,-0.464
946,-4.627
947,5.147
948,0.057
949,-2.093
950,2.07
951,-3.38
952,0.986
953,-10.268
954,-2.58
955,-6.431
956,-4.812
957,-3.382
958,1.668
959,-2.722
960,11.431
961,-3.257
962,-2.503
963,-4.138
964,-5.252
965,1.943
966,-12.847
967,-1.287
968,-4.752
969,1.724
970,-3.113
971,0.105
972,-4.779
973,-2.019
974,2.151
975,8.384
976,-7.292
977,-0.995
978,-0.847
979,-8.924
980,-8.83
981,-9.917
982,-5.447
983,-5.562
984,-6.837
985,-10.698
986,-4.875
987,-0.681
988,2.202
989,-0.643
990,-2.15
991,-7.53
992,5.713
993,-5.762
994,7.091
995,1.311
996,1.778
997,-4.301
998,2.343
999,0.818
1000,-2.729
1001,2.602
1002,-3.719
1003,3.075
1004,-3.629
1005,6.614
1006,-2.811
1007,-7.935
1008,-9.309
1009,11.518
1010,-1.65
1011,3.878
1012,-2.171
1013,1.358
1014,-6.364
1015,-5.895
1016,-2.851
1017,-5.703
1018,6.733
1019,4.862
1020,-1.166
1021,-0.258
1022,6.248
1023,-0.048
1024,1.596
1025,0.687
1026,7.634
1027,-0.823
1028,6.113
1029,-6.134
1030,-3.819
1031,-9.307
1032,7.417
1033,-9.358
1034,1.532
1035,-3.332
1036,-3.565
1037,-8.642
1038,-3.719
1039,-10.287
1040,2.425
1041,2.94
1042,-4.953
1043,0.574
1044,-7.772
1045,6.366
1046,-1.263
1047,-4.534
1048,-3.792
1049,-5.996
1050,-6.437
1051,1.602
1052,-10.12
1053,-4.89
1054,-3.726
1055,5.297
1056,-7.066
1057,2.773
1058,-2.467
1059,4.285
1060,-0.432
1061,5.417
1062,2.028
1063,-2.183
1064,2.385
1065,-3.897
1066,6.984
1067,-0.764
1068,-3.824
1069,2.971
1070,-4.435
1071,-1.695
1072,1.625
1073,2.076
1074,-8.38
1075,-1.441
1076,-14.589
1077,4.705
1078,-2.965
1079,-0.588
1080,4.381
1081,5.022
1082,-2.464
1083,0.533
1084,-0.141
1085,-2.781
1086,10.081
1087,-0.388
1088,-1.94
1089,4.795
1090,6.568
1091,5.846
1092,-3.813
1093,0.872
1094,-2.913
1095,4.26
1096,4.428
1097,-2.737
1098,0.289
1099,-6.836
1100,1.601
1101,3.079
1102,-3.788
1103,12.785
1104,-0.567
1105,1.95
1106,3.474
1107,14.613
1108,4.014
1109,-3.057
1110,7.004
1111,1.39
1112,1.984
1113,13.004
1114,1.779
1115,17.732
1116,13.543
1117,6.178
1118,14.906
1119,12.921
1120,15.348
1121,11.69
1122,18.783
1123,23.018
1124,25.441
1125,19.609
1126,27.926
1127,22.71
1128,28.268
1129,27.487
1130,37.349
1131,21.846
1132,33.844
1133,40.944
1134,44.956
1135,41.051
1136,44.746
1137,57.1
1138,48.215
1139,55.651
1140,61.648
1141,58.886
1142,72.769
1143,71.355
1144,80.116
1145,82.356
1146,80.745
1147,87.685
1148,95.708
1149,105.161
1150,123.116
1151,108.019
1152,116.723
1153,121.472
1154,124.305
1155,130.539
1156,138.992
1157,149.604
1158,153.654
1159,156.439
1160,174.138
1161,178.992
1162,183.01
1163,192.243
1164,198.732
1165,209.069
1166,227.838
1167,233.8
1168,238.338
1169,259.315
1170,260.061
1171,260.4
1172,281.93
1173,291.512
1174,305.512
1175,314.056
1176,320.643
1177,337.246
1178,346.728
1179,360.574
1180,362.047
1181,381.539
1182,390.818
1183,410.959
1184,418.21
1185,425.58
1186,437.435
1187,436.695
1188,462.775
1189,465.149
1190,487.43
1191,491.366
1192,501.342
1193,516.157
1194,524.138
1195,535.998
1196,554.066
1197,553.516
1198,561.104
1199,575.518
1200,590.447
1201,588.812
1202,602.039
1203,605.867
1204,624.877
1205,627.03
1206,634.564
1207,648.128
1208,645.274
1209,646.568
1210,641.397
1211,671.54
1212,672.359
1213,672.213
1214,677.955
1215,675.845
1216,686.18
1217,675.649
1218,688.041
1219,675.595
1220,689.135
1221,688.49
1222,686.164
1223,674.264
1224,697.098
1225,689.846
1226,692.808
1227,678.286
1228,668.262
1229,675.818
1230,670.769
1231,667.723
1232,660.25
1233,653.051
1234,648.293
1235,639.778
1236,629.212
1237,619.597
1238,627.99
1239,610.757
1240,604.02
1241,595.138
1242,586.661
1243,570.915
1244,562.722
1245,558.735
1246,553.537
1247,536.532
1248,520.786
1249,515.659
1250,500.866
1251,502.017
1252,482.873
1253,475.162
1254,459.61
1255,454.417
1256,435.539
1257,427.161
1258,412.568
1259,406.467
1260,381.537
1261,381.816
1262,373.998
1263,359.113
1264,337.075
1265,342.178
1266,319.201
1267,312.738
1268,299.396
1269,291.635
1270,285.716
1271,277.526
1272,271.814
1273,255.249
1274,238.19
1275,226.247
1276,216.165
1277,219.39
1278,217.555
1279,190.659
1280,186.223
1281,187.938
1282,171.468
1283,163.547
1284,152.207
1285,149.248
1286,150.716
1287,130.095
1288,130.969
1289,124.858
1290,116.622
1291,99.642
1292,103.016
1293,96.789
1294,92.776
1295,100.598
1296,81.42
1297,75.301
1298,67.337
1299,70.355
1300,60.639
1301,63.777
1302,62.512
1303,50.923
1304,52.683
1305,52.522
1306,55.296
1307,49.177
1308,40.406
1309,40.004
1310,32.21
1311,39.603
1312,24.975
1313,31.616
1314,28.496
1315,28.322
1316,28.543
1317,35.109
1318,17.508
1319,18.683
1320,17.202
1321,15.659
1322,18.033
1323,19.365
1324,7.873
1325,18.41
1326,20.406
1327,21.101
1328,13.418
1329,9.349
1330,5.957
1331,7.894
1332,3.581
1333,6.14
1334,3.41
1335,2.178
1336,2.92
1337,7.245
1338,7.392
1339,5.63
1340,1.217
1341,-5.082
1342,6.058
1343,4.295
1344,-6.05
1345,-4.444
1346,7.137
