Wavenumbers	Absorbance/g
cm\+(-1)	
1303.18	232.85714
1305.11	230.3
1307.03	227.02857
1308.96	224.42857
1310.88	221.62857
1312.81	219
1314.73	215.92857
1316.66	213.55714
1318.58	211.11429
1320.51	208.71429
1322.43	206.28571
1324.36	204.22857
1326.28	202.14286
1328.21	199.9
1330.13	197.9
1332.06	195.98571
1333.98	194.11429
1335.91	192.45714
1337.83	190.65714
1339.76	189.02857
1341.68	187.6
1343.61	186.2
1345.53	184.77143
1347.46	183.61429
1349.38	182.35714
1351.31	181.2
1353.23	180.18571
1355.16	179.18571
1357.08	178.14286
1359.01	177.27143
1360.93	176.34286
1362.86	175.61429
1364.78	175
1366.7	174.24286
1368.63	173.57143
1370.55	172.92857
1372.48	172.24286
1374.4	171.7
1376.33	171.28571
1378.25	170.71429
1380.18	170.25714
1382.1	169.67143
1384.03	169.4
1385.95	168.97143
1387.88	168.51429
1389.8	168.38571
1391.73	167.9
1393.65	167.38571
1395.58	167.21429
1397.5	166.97143
1399.43	166.9
1401.35	166.58571
1403.28	166.21429
1405.2	166.07143
1407.13	165.82857
1409.05	165.62857
1410.98	165.31429
1412.9	164.95714
1414.83	164.72857
1416.75	164.32857
1418.68	164.35714
1420.6	164.15714
1422.53	163.87143
1424.45	163.6
1426.38	163.4
1428.3	163.31429
1430.23	162.9
1432.15	162.67143
1434.08	162.27143
1436	162.24286
1437.93	161.91429
1439.85	161.88571
1441.78	161.52857
1443.7	161.45714
1445.63	161.21429
1447.55	161.15714
1449.48	160.85714
1451.4	160.71429
1453.33	160.54286
1455.25	160.41429
1457.18	160.41429
1459.1	160.34286
1461.03	160.05714
1462.95	159.84286
1464.88	159.75714
1466.8	159.65714
1468.73	159.28571
1470.65	159.24286
1472.58	158.9
1474.5	158.77143
1476.43	158.6
1478.35	158.38571
1480.28	158.24286
1482.2	157.84286
1484.13	157.7
1486.05	157.57143
1487.98	157.25714
1489.9	157.07143
1491.83	156.8
1493.75	156.5
1495.68	156.44286
1497.6	156.21429
1499.53	156.01429
1501.45	155.68571
1503.38	155.38571
1505.3	155.17143
1507.23	155.22857
1509.15	155.21429
1511.08	155
1513	154.92857
1514.93	154.74286
1516.85	154.82857
1518.77	154.8
1520.7	155.02857
1522.62	155.08571
1524.55	155.05714
1526.47	155.11429
1528.4	155
1530.32	155.08571
1532.25	155.04286
1534.17	154.97143
1536.1	154.82857
1538.02	154.74286
1539.95	154.6
1541.87	154.62857
1543.8	154.51429
1545.72	154.45714
1547.65	154.27143
1549.57	154.14286
1551.5	153.85714
1553.42	153.75714
1555.35	153.61429
1557.27	153.6
1559.2	153.7
1561.12	153.62857
1563.05	153.6
1564.97	153.51429
1566.9	153.51429
1568.82	153.62857
1570.75	153.71429
1572.67	153.65714
1574.6	153.74286
1576.52	153.85714
1578.45	154.07143
1580.37	154.28571
1582.3	154.35714
1584.22	154.57143
1586.15	154.88571
1588.07	155.2
1590	155.32857
1591.92	155.6
1593.85	155.9
1595.77	156.34286
1597.7	156.64286
1599.62	156.97143
1601.55	157.35714
1603.47	157.65714
1605.4	158
1607.32	158.42857
1609.25	158.75714
1611.17	159.12857
1613.1	159.47143
1615.02	159.91429
1616.95	160.25714
1618.87	160.6
1620.8	160.77143
1622.72	161.14286
1624.65	161.35714
1626.57	161.57143
1628.5	161.82857
1630.42	161.9
1632.35	161.95714
1634.27	162.18571
1636.2	162.42857
1638.12	162.58571
1640.05	162.55714
1641.97	162.61429
1643.9	162.58571
1645.82	162.65714
1647.75	162.57143
1649.67	162.32857
1651.6	162.45714
1653.52	162.52857
1655.45	162.3
1657.37	162.1
1659.3	161.94286
1661.22	161.78571
1663.15	161.58571
1665.07	161.14286
1667	160.98571
1668.92	160.62857
1670.84	160.41429
1672.77	159.98571
1674.69	159.88571
1676.62	159.42857
1678.54	159
1680.47	158.6
1682.39	158.21429
1684.32	157.95714
1686.24	157.54286
1688.17	157.14286
1690.09	156.6
1692.02	156.14286
1693.94	155.67143
1695.87	155.34286
1697.79	154.85714
1699.72	154.71429
1701.64	154.37143
1703.57	154.1
1705.49	153.88571
1707.42	153.71429
1709.34	153.57143
1711.27	153.27143
1713.19	153.18571
1715.12	153
1717.04	153.07143
1718.97	152.98571
1720.89	152.91429
1722.82	152.72857
1724.74	152.57143
1726.67	152.27143
1728.59	151.97143
1730.52	151.65714
1732.44	151.37143
1734.37	151.05714
1736.29	150.68571
1738.22	150.4
1740.14	150.07143
1742.07	149.78571
1743.99	149.57143
1745.92	149.38571
1747.84	149.18571
1749.77	149.2
1751.69	149.15714
1753.62	149.01429
1755.54	149.04286
1757.47	149.12857
1759.39	149.21429
1761.32	149.37143
1763.24	149.52857
1765.17	149.57143
1767.09	149.72857
1769.02	149.91429
1770.94	150.15714
1772.87	150.37143
1774.79	150.58571
1776.72	150.75714
1778.64	150.94286
1780.57	151.17143
1782.49	151.32857
1784.42	151.5
1786.34	151.68571
1788.27	151.91429
1790.19	152.08571
1792.12	152.31429
1794.04	152.52857
1795.97	152.71429
1797.89	152.92857
1799.82	153.17143
1801.74	153.37143
1803.67	153.62857
1805.59	153.9
1807.52	154.15714
1809.44	154.42857
1811.37	154.77143
1813.29	155.1
1815.22	155.4
1817.14	155.78571
1819.07	156.11429
1820.99	156.52857
1822.91	156.87143
1824.84	157.34286
1826.76	157.77143
1828.69	158.34286
1830.61	158.92857
1832.54	159.45714
1834.46	160.11429
1836.39	160.78571
1838.31	161.5
1840.24	162.21429
1842.16	163.11429
1844.09	163.98571
1846.01	164.88571
1847.94	165.87143
1849.86	166.7
1851.79	167.7
1853.71	168.67143
1855.64	169.62857
1857.56	170.58571
1859.49	171.51429
1861.41	172.32857
1863.34	173.05714
1865.26	173.77143
1867.19	174.47143
1869.11	175.05714
1871.04	175.48571
1872.96	175.78571
1874.89	175.92857
1876.81	176.04286
1878.74	175.88571
1880.66	175.64286
1882.59	175.25714
1884.51	174.72857
1886.44	173.91429
1888.36	173.21429
1890.29	172.3
1892.21	171.28571
1894.14	170.21429
1896.06	169.08571
1897.99	167.87143
1899.91	166.65714
1901.84	165.44286
1903.76	164.14286
1905.69	162.9
1907.61	161.71429
1909.54	160.64286
1911.46	159.5
1913.39	158.48571
1915.31	157.54286
1917.24	156.67143
1919.16	155.87143
1921.09	155.22857
1923.01	154.55714
1924.94	154.02857
1926.86	153.51429
1928.79	153.18571
1930.71	152.87143
1932.64	152.58571
1934.56	152.4
1936.49	152.3
1938.41	152.08571
1940.34	152.1
1942.26	152.07143
1944.19	152.17143
1946.11	152.18571
1948.04	152.25714
1949.96	152.34286
1951.89	152.54286
1953.81	152.71429
1955.74	152.92857
1957.66	153
1959.59	153.2
1961.51	153.45714
1963.44	153.57143
1965.36	153.78571
1967.29	153.98571
1969.21	154.14286
1971.14	154.24286
1973.06	154.42857
1974.98	154.48571
1976.91	154.62857
1978.83	154.65714
1980.76	154.62857
1982.68	154.65714
1984.61	154.62857
1986.53	154.52857
1988.46	154.44286
1990.38	154.4
1992.31	154.2
1994.23	154.05714
1996.16	153.8
1998.08	153.55714
2000.01	153.25714
2001.93	152.95714
2003.86	152.57143
2005.78	152.21429
2007.71	151.84286
2009.63	151.44286
2011.56	151.04286
2013.48	150.54286
2015.41	150.11429
2017.33	149.62857
2019.26	149.14286
2021.18	148.58571
2023.11	148.04286
2025.03	147.52857
2026.96	147
2028.88	146.45714
2030.81	145.9
2032.73	145.3
2034.66	144.71429
2036.58	144.14286
2038.51	143.52857
2040.43	142.92857
2042.36	142.33143
2044.28	141.72286
2046.21	141.14429
2048.13	140.55571
2050.06	140.00286
2051.98	139.5
2053.91	138.93143
2055.83	138.41429
2057.76	137.88571
2059.68	137.44429
2061.61	136.89143
2063.53	136.49857
2065.46	136.07571
2067.38	135.72429
2069.31	135.34714
2071.23	134.96571
2073.16	134.62286
2075.08	134.33143
2077.01	134.03
2078.93	133.77857
2080.86	133.56714
2082.78	133.33143
2084.71	133.17
2086.63	133.00429
2088.56	132.83857
2090.48	132.68714
2092.41	132.60286
2094.33	132.40143
2096.26	132.27571
2098.18	132.22571
2100.11	132.18429
2102.03	132.10429
2103.96	132.06429
2105.88	132.04429
2107.81	131.97857
2109.73	131.96429
2111.66	131.83286
2113.58	131.88286
2115.51	131.77286
2117.43	131.85857
2119.36	131.74714
2121.28	131.79714
2123.2	131.75286
2125.13	131.75714
2127.05	131.77714
2128.98	131.77286
2130.9	131.74286
2132.83	131.72714
2134.75	131.75714
2136.68	131.74714
2138.6	131.76714
2140.53	131.74286
2142.45	131.75286
2144.38	131.76714
2146.3	131.75286
2148.23	131.82286
2150.15	131.75286
2152.08	131.79714
2154	131.75714
2155.93	131.77286
2157.85	131.74286
2159.78	131.80714
2161.7	131.75286
2163.63	131.79714
2165.55	131.79714
2167.48	131.77286
2169.4	131.79714
2171.33	131.81714
2173.25	131.81714
2175.18	131.77714
2177.1	131.82857
2179.03	131.76714
2180.95	131.84286
2182.88	131.82286
2184.8	131.86857
2186.73	131.81286
2188.65	131.88286
2190.58	131.83286
2192.5	131.87286
2194.43	131.91857
2196.35	131.89286
2198.28	131.91286
2200.2	131.89286
2202.13	131.89857
2204.05	131.96857
2205.98	131.96429
2207.9	131.93286
2209.83	131.97429
2211.75	132.00429
2213.68	132.05429
2215.6	132.07429
2217.53	132.06429
2219.45	132.09429
2221.38	132.11
2223.3	132.15429
2225.23	132.22571
2227.15	132.21571
2229.08	132.25571
2231	132.26571
2232.93	132.34143
2234.85	132.35571
2236.78	132.41143
2238.7	132.42571
2240.63	132.44571
2242.55	132.46143
2244.48	132.50714
2246.4	132.57143
2248.33	132.54143
2250.25	132.56143
2252.18	132.56714
2254.1	132.62714
2256.03	132.65714
2257.95	132.69714
2259.88	132.69714
2261.8	132.74857
2263.73	132.79857
2265.65	132.81857
2267.58	132.80857
2269.5	132.80286
2271.43	132.83286
2273.35	132.93857
2275.27	132.90857
2277.2	132.93857
2279.12	132.93429
2281.05	132.98429
2282.97	132.96857
2284.9	132.95857
2286.82	132.91429
2288.75	132.88429
2290.67	132.87429
2292.6	132.85857
2294.52	132.89857
2296.45	132.85286
2298.37	132.85286
2300.3	132.83286
2302.22	132.82286
2304.15	132.78857
2306.07	132.75857
2308	132.78286
2309.92	132.73286
2311.85	132.68714
2313.77	132.69714
2315.7	132.70286
2317.62	132.68286
2319.55	132.63714
2321.47	132.57714
2323.4	132.54714
2325.32	132.49714
2327.25	132.43571
2329.17	132.28571
2331.1	132.23
2333.02	132.09
2334.95	132.19
2336.87	132.12429
2338.8	132.06857
2340.72	131.63714
2342.65	131.47571
2344.57	131.86286
2346.5	132.15
2348.42	132.25
2350.35	132.39143
2352.27	132.43571
2354.2	132.44143
2356.12	132.50143
2358.05	132.50714
2359.97	132.50714
2361.9	132.55714
2363.82	132.55714
2365.75	132.53714
2367.67	132.57714
2369.6	132.51143
2371.52	132.63286
2373.45	132.64286
2375.37	132.62714
2377.3	132.65286
2379.22	132.68714
2381.15	132.73857
2383.07	132.77857
2385	132.77857
2386.92	132.83857
2388.85	132.84286
2390.77	132.88429
2392.7	132.89429
2394.62	132.91429
2396.55	132.90429
2398.47	132.97857
2400.4	132.99
2402.32	132.96429
2404.25	133.03
2406.17	133.03
2408.1	133.08
2410.02	133.05
2411.95	133.08
2413.87	133.08429
2415.8	133.12
2417.72	133.13
2419.65	133.16571
2421.57	133.14571
2423.5	133.19571
2425.42	133.22
2427.34	133.19571
2429.27	133.28571
2431.19	133.25143
2433.12	133.30571
2435.04	133.30571
2436.97	133.30143
2438.89	133.32571
2440.82	133.35143
2442.74	133.39143
2444.67	133.42143
2446.59	133.47143
2448.52	133.49143
2450.44	133.52714
2452.37	133.48714
2454.29	133.50143
2456.22	133.46143
2458.14	133.50143
2460.07	133.53286
2461.99	133.57286
2463.92	133.57286
2465.84	133.62286
2467.77	133.67857
2469.69	133.64286
2471.62	133.65286
2473.54	133.65286
2475.47	133.70857
2477.39	133.74857
2479.32	133.72857
2481.24	133.72286
2483.17	133.75286
2485.09	133.82857
2487.02	133.86429
2488.94	133.77429
2490.87	133.85857
2492.79	133.85857
2494.72	133.78429
2496.64	133.91
2498.57	133.94
2500.49	133.86429
2502.42	133.92429
2504.34	134.04
2506.27	133.98429
2508.19	133.97429
2510.12	133.96
2512.04	133.99
2513.97	134.08571
2515.89	134.09571
2517.82	134.08571
2519.74	134.08
2521.67	134.08571
2523.59	134.13
2525.52	134.15571
2527.44	134.15143
2529.37	134.19143
2531.29	134.19571
2533.22	134.18571
2535.14	134.17143
2537.07	134.20571
2538.99	134.26143
2540.92	134.27571
2542.84	134.27143
2544.77	134.39143
2546.69	134.38143
2548.62	134.29714
2550.54	134.28714
2552.47	134.29714
2554.39	134.26143
2556.32	134.33143
2558.24	134.28714
2560.17	134.29143
2562.09	134.26571
2564.02	134.26571
2565.94	134.23571
2567.87	134.22143
2569.79	134.09
2571.72	134.10571
2573.64	134.05571
2575.57	134
2577.49	133.99429
2579.41	133.9
2581.34	133.87429
2583.26	133.82857
2585.19	133.79429
2587.11	133.76429
2589.04	133.68857
2590.96	133.65857
2592.89	133.67857
2594.81	133.62286
2596.74	133.57286
2598.66	133.55714
2600.59	133.50143
2602.51	133.49143
2604.44	133.49143
2606.36	133.37143
2608.29	133.41714
2610.21	133.39714
2612.14	133.39143
2614.06	133.32571
2615.99	133.39714
2617.91	133.35143
2619.84	133.33571
2621.76	133.32571
2623.69	133.28143
2625.61	133.28143
2627.54	133.29143
2629.46	133.18571
2631.39	133.22571
2633.31	133.21571
2635.24	133.18571
2637.16	133.18571
2639.09	133.17571
2641.01	133.14
2642.94	133.23
2644.86	133.08
2646.79	133.11571
2648.71	133.12571
2650.64	133.14
2652.56	133.13
2654.49	133.13571
2656.41	133.15
2658.34	133.07429
2660.26	133.1
2662.19	133.08429
2664.11	133.09429
2666.04	133.04429
2667.96	133.13571
2669.89	133.06429
2671.81	133.12
2673.74	133.10429
2675.66	133.14
2677.59	133.09429
2679.51	133.12571
2681.44	133.15
2683.36	133.17
2685.29	133.18
2687.21	133.21
2689.14	133.18571
2691.06	133.17571
2692.99	133.24571
2694.91	133.26571
2696.84	133.21
2698.76	133.23571
2700.69	133.23
2702.61	133.19
2704.54	133.25143
2706.46	133.13571
2708.39	133.29143
2710.31	133.28143
2712.24	133.33571
2714.16	133.38143
2716.09	133.32571
2718.01	133.35571
2719.94	133.36143
2721.86	133.40143
2723.79	133.42714
2725.71	133.44714
2727.64	133.44143
2729.56	133.48714
2731.48	133.56714
2733.41	133.61286
2735.33	133.61286
2737.26	133.52286
2739.18	133.60286
2741.11	133.66857
2743.03	133.60286
2744.96	133.64286
2746.88	133.66286
2748.81	133.68286
2750.73	133.63286
2752.66	133.64857
2754.58	133.72857
2756.51	133.79429
2758.43	133.81429
2760.36	133.77429
2762.28	133.80857
2764.21	133.80429
2766.13	133.98
2768.06	133.93429
2769.98	133.93429
2771.91	134.05
2773.83	134.06571
2775.76	134.05571
2777.68	134.11571
2779.61	134.1
2781.53	134.18143
2783.46	134.17143
2785.38	134.25571
2787.31	134.27571
2789.23	134.38143
2791.16	134.35714
2793.08	134.41714
2795.01	134.40714
2796.93	134.49714
2798.86	134.54857
2800.78	134.53286
2802.71	134.61286
2804.63	134.76429
2806.56	134.72857
2808.48	134.83
2810.41	134.92
2812.33	135.00571
2814.26	134.97571
2816.18	134.94
2818.11	135.04
2820.03	135.05
2821.96	135.09143
2823.88	135.17571
2825.81	135.26143
2827.73	135.30714
2829.66	135.30143
2831.58	135.50286
2833.51	135.54286
2835.43	135.58857
2837.36	135.64429
2839.28	135.74429
2841.21	135.83571
2843.13	135.91
2845.06	136.14143
2846.98	136.24286
2848.91	136.28714
2850.83	136.33714
2852.76	136.34286
2854.68	136.29714
2856.61	136.39857
2858.53	136.38857
2860.46	136.54857
2862.38	136.50857
2864.31	136.54857
2866.23	136.62
2868.16	136.56429
2870.08	136.74
2872.01	136.61429
2873.93	136.74
2875.86	136.59857
2877.78	136.74571
2879.71	136.68
2881.63	136.81571
2883.55	136.77571
2885.48	136.81
2887.4	136.97143
2889.33	136.99714
2891.25	137.14286
2893.18	137.19286
2895.1	137.30857
2897.03	137.34286
2898.95	137.55429
2900.88	137.56
2902.8	137.78571
2904.73	137.85571
2906.65	137.84143
2908.58	137.99143
2910.5	137.92143
2912.43	138.04714
2914.35	138.17286
2916.28	138.28857
2918.2	138.31429
2920.13	138.45
2922.05	138.51429
2923.98	138.6
2925.9	138.61571
2927.83	138.64571
2929.75	138.6
2931.68	138.64571
2933.6	138.58
2935.53	138.67
2937.45	138.59571
2939.38	138.66571
2941.3	138.73571
2943.23	138.72571
2945.15	138.87714
2947.08	139.05286
2949	139.11857
2950.93	139.17286
2952.85	139.23429
2954.78	139.26429
2956.7	139.52
2958.63	139.63143
2960.55	139.53571
2962.48	139.52
2964.4	139.47571
2966.33	139.4
2968.25	139.33
2970.18	139.31857
2972.1	139.19857
2974.03	139.21429
2975.95	139.05714
2977.88	139.09286
2979.8	139.08286
2981.73	138.95714
2983.65	138.95714
2985.58	138.88143
2987.5	138.84143
2989.43	138.85714
2991.35	138.80143
2993.28	138.81714
2995.2	138.79571
2997.13	138.80571
2999.05	138.86714
3000.98	138.79571
3002.9	138.96286
3004.83	138.95714
3006.75	138.94286
3008.68	139.02714
3010.6	139.07857
3012.53	139.12286
3014.45	139.16286
3016.38	139.17857
3018.3	139.25857
3020.23	139.28857
3022.15	139.24429
3024.08	139.36429
3026	139.28429
3027.93	139.39
3029.85	139.42429
3031.78	139.40429
3033.7	139.46
3035.62	139.51
3037.55	139.55571
3039.47	139.51
3041.4	139.57
3043.32	139.58
3045.25	139.55571
3047.17	139.61571
3049.1	139.68143
3051.02	139.73143
3052.95	139.82714
3054.87	139.74143
3056.8	139.86286
3058.72	139.87714
3060.65	139.94286
3062.57	139.85286
3064.5	139.95286
3066.42	139.90714
3068.35	140.04286
3070.27	139.99857
3072.2	140.06286
3074.12	140.08857
3076.05	140.18857
3077.97	140.18429
3079.9	140.17857
3081.82	140.18429
3083.75	140.25429
3085.67	140.30429
3087.6	140.35
3089.52	140.32
3091.45	140.42
3093.37	140.44571
3095.3	140.50143
3097.22	140.53571
3099.15	140.52571
3101.07	140.52571
3103	140.57143
3104.92	140.60143
3106.85	140.63143
3108.77	140.66714
3110.7	140.66714
3112.62	140.77714
3114.55	140.83286
3116.47	140.86286
3118.4	140.85286
3120.32	140.95286
3122.25	140.95857
3124.17	141.01429
3126.1	141.07857
3128.02	141.04857
3129.95	141.04857
3131.87	141.08857
3133.8	141.17
3135.72	141.19429
3137.65	141.25
3139.57	141.28571
3141.5	141.37
3143.42	141.44143
3145.35	141.45143
3147.27	141.46143
3149.2	141.52143
3151.12	141.57143
3153.05	141.65714
3154.97	141.69286
3156.9	141.71714
3158.82	141.72286
3160.75	141.79857
3162.67	141.85857
3164.6	141.89286
3166.52	141.89857
3168.45	141.94857
3170.37	142.00429
3172.3	142.03857
3174.22	142.08429
3176.15	142.14429
3178.07	142.25
3180	142.29
3181.92	142.37571
3183.85	142.38143
3185.77	142.45143
3187.69	142.52714
3189.62	142.55714
3191.54	142.52143
3193.47	142.56286
3195.39	142.64286
3197.32	142.70857
3199.24	142.76857
3201.17	142.83429
3203.09	142.79286
3205.02	142.98571
3206.94	142.98571
3208.87	143.02857
3210.79	143.12857
3212.72	143.11429
3214.64	143.18571
3216.57	143.25714
3218.49	143.31429
3220.42	143.37143
3222.34	143.47143
3224.27	143.4
3226.19	143.48571
3228.12	143.58571
3230.04	143.58571
3231.97	143.7
3233.89	143.7
3235.82	143.81429
3237.74	143.74286
3239.67	143.88571
3241.59	143.9
3243.52	143.98571
3245.44	144.05714
3247.37	144.22857
3249.29	144.21429
3251.22	144.22857
3253.14	144.21429
3255.07	144.34286
3256.99	144.37143
3258.92	144.48571
3260.84	144.48571
3262.77	144.6
3264.69	144.6
3266.62	144.6
3268.54	144.62857
3270.47	144.78571
3272.39	144.77143
3274.32	144.87143
3276.24	144.97143
3278.17	144.95714
3280.09	145.08571
3282.02	145.08571
3283.94	145.24286
3285.87	145.24286
3287.79	145.31429
3289.72	145.34286
3291.64	145.44286
3293.57	145.48571
3295.49	145.55714
3297.42	145.61429
3299.34	145.64286
3301.27	145.72857
3303.19	145.81429
3305.12	145.85714
3307.04	145.9
3308.97	145.97143
3310.89	146.05714
3312.82	146.15714
3314.74	146.14286
3316.67	146.37143
3318.59	146.41429
3320.52	146.38571
3322.44	146.44286
3324.37	146.55714
3326.29	146.62857
3328.22	146.72857
3330.14	146.75714
3332.07	146.88571
3333.99	146.97143
3335.92	147.11429
3337.84	147.21429
3339.76	147.35714
3341.69	147.48571
3343.61	147.48571
3345.54	147.64286
3347.46	147.68571
3349.39	147.77143
3351.31	147.98571
3353.24	148.04286
3355.16	148.14286
3357.09	148.21429
3359.01	148.34286
3360.94	148.37143
3362.86	148.55714
3364.79	148.67143
3366.71	148.8
3368.64	148.85714
3370.56	149.05714
3372.49	149.12857
3374.41	149.35714
3376.34	149.6
3378.26	149.62857
3380.19	149.87143
3382.11	150.04286
3384.04	150.22857
3385.96	150.4
3387.89	150.52857
3389.81	150.71429
3391.74	150.92857
3393.66	151.14286
3395.59	151.31429
3397.51	151.52857
3399.44	151.77143
3401.36	152.01429
3403.29	152.21429
3405.21	152.42857
3407.14	152.58571
3409.06	152.87143
3410.99	153.17143
3412.91	153.35714
3414.84	153.6
3416.76	153.84286
3418.69	154.14286
3420.61	154.41429
3422.54	154.68571
3424.46	154.94286
3426.39	155.21429
3428.31	155.55714
3430.24	155.88571
3432.16	156.27143
3434.09	156.48571
3436.01	156.81429
3437.94	157.15714
3439.86	157.57143
3441.79	157.97143
3443.71	158.2
3445.64	158.57143
3447.56	158.97143
3449.49	159.42857
3451.41	159.78571
3453.34	160.24286
3455.26	160.55714
3457.19	161.01429
3459.11	161.4
3461.04	161.81429
3462.96	162.21429
3464.89	162.61429
3466.81	163.02857
3468.74	163.54286
3470.66	163.91429
3472.59	164.4
3474.51	164.74286
3476.44	165.12857
3478.36	165.47143
3480.29	165.75714
3482.21	166.08571
3484.14	166.4
3486.06	166.65714
3487.98	166.78571
3489.91	166.9
3491.83	167.05714
3493.76	167.08571
3495.68	166.98571
3497.61	166.84286
3499.53	166.48571
3501.46	166.31429
3503.38	166.07143
3505.31	165.57143
3507.23	165.15714
3509.16	164.68571
3511.08	164.08571
3513.01	163.35714
3514.93	162.62857
3516.86	161.94286
3518.78	161.24286
3520.71	160.31429
3522.63	159.6
3524.56	158.8
3526.48	158.1
3528.41	157.25714
3530.33	156.45714
3532.26	155.62857
3534.18	155.04286
3536.11	154.3
3538.03	153.57143
3539.96	152.85714
3541.88	152.38571
3543.81	151.88571
3545.73	151.45714
3547.66	151.04286
3549.58	150.6
3551.51	150.28571
3553.43	150.02857
3555.36	149.68571
3557.28	149.58571
3559.21	149.22857
3561.13	149.12857
3563.06	149.17143
3564.98	148.95714
3566.91	148.88571
3568.83	148.64286
3570.76	148.51429
3572.68	148.32857
3574.61	148.2
3576.53	147.91429
3578.46	147.71429
3580.38	147.37143
3582.31	146.87143
3584.23	146.65714
3586.16	146.14286
3588.08	145.88571
3590.01	145.6
3591.93	145.34286
3593.86	145.2
3595.78	145.35714
3597.71	145.42857
3599.63	145.62857
3601.56	145.78571
3603.48	146.21429
3605.41	146.47143
3607.33	146.71429
3609.26	147.1
3611.18	147.24286
3613.11	147.54286
3615.03	148.1
3616.96	148.51429
3618.88	148.98571
3620.81	149.04286
3622.73	148.62857
3624.66	148.35714
3626.58	147.45714
3628.51	146.35714
3630.43	145.44286
3632.36	144.52857
3634.28	143.65714
3636.21	142.97143
3638.13	142.42143
3640.05	141.79286
3641.98	141.50571
3643.9	141.20429
3645.83	141.13429
3647.75	141.16
3649.68	141.14
3651.6	141.15
3653.53	141.22
3655.45	141.26571
3657.38	141.41143
3659.3	141.60143
3661.23	141.77286
3663.15	141.82857
3665.08	142.13429
3667	142.33143
3668.93	142.45714
3670.85	142.72286
3672.78	142.95714
3674.7	143.11429
3676.63	143.3
3678.55	143.37143
3680.48	143.5
3682.4	143.57143
3684.33	143.68571
3686.25	143.64286
3688.18	143.55714
3690.1	143.4
3692.03	143.4
3693.95	143.45714
3695.88	143.61429
3697.8	143.87143
3699.73	143.92857
3701.65	144.24286
3703.58	144.72857
3705.5	145.07143
3707.43	145.51429
3709.35	145.74286
3711.28	146.18571
3713.2	146.68571
3715.13	147.07143
3717.05	147.91429
3718.98	149.14286
3720.9	150.64286
3722.83	152.84286
3724.75	155.41429
3726.68	159.08571
3728.6	163.32857
3730.53	168.24286
3732.45	173.64286
3734.38	179.5
3736.3	185.75714
3738.23	193.87143
3740.15	201.8
3742.08	199.78571
3744	173.32857
3745.93	154.17143
3747.85	148.71429
3749.78	144.28571
3751.7	140.88857
3753.63	138.46
3755.55	136.79
3757.48	135.61857
3759.4	135.06571
3761.33	135.26714
3763.25	135.10571
3765.18	135.56857
3767.1	136.07571
3769.03	136.56857
3770.95	136.79
3772.88	136.78
3774.8	136.67
3776.73	136.40286
3778.65	135.99143
3780.58	135.43714
3782.5	135.10143
3784.43	134.71857
3786.35	134.29143
3788.28	134.04571
3790.2	133.76857
3792.12	133.66286
3794.05	133.27571
3795.97	133.22571
3797.9	133.01
3799.82	132.73857
3801.75	132.84857
3803.67	132.96857
3805.6	132.87857
3807.52	132.85857
3809.45	132.73286
3811.37	132.72286
3813.3	132.78286
3815.22	132.64714
3817.15	132.85286
3819.07	132.63286
3821	132.69286
3822.92	132.74857
3824.85	132.68286
3826.77	132.64286
3828.7	132.76286
3830.62	132.49143
3832.55	132.65714
3834.47	132.73857
3836.4	132.55143
3838.32	132.83857
3840.25	132.77857
3842.17	132.52143
3844.1	132.45571
3846.02	132.49143
3847.95	132.60286
3849.87	132.51714
3851.8	132.68714
3853.72	132.57714
3855.65	132.50714
3857.57	132.36143
3859.5	132.47143
3861.42	132.44143
3863.35	132.43143
3865.27	132.44571
3867.2	132.36571
3869.12	132.41143
3871.05	132.31
3872.97	132.1
3874.9	132.27571
3876.82	132.35143
3878.75	132.17429
3880.67	132.18429
3882.6	132.25
3884.52	132.01857
3886.45	132.06429
3888.37	132.00857
3890.3	132.01857
3892.22	131.90286
3894.15	131.96429
3896.07	132.02429
3898	131.95429
3899.92	132.00429
3901.85	132.05857
3903.77	132.00429
3905.7	131.93857
3907.62	131.96857
3909.55	131.74286
3911.47	131.87857
3913.4	131.90286
3915.32	131.88286
3917.25	131.93857
3919.17	131.94286
3921.1	131.87857
3923.02	131.71714
3924.95	131.74714
3926.87	131.77286
3928.8	131.88857
3930.72	131.78714
3932.65	131.78286
3934.57	131.77286
3936.5	131.61714
3938.42	131.90857
3940.35	131.84286
3942.27	131.67143
3944.19	131.86286
3946.12	131.85286
3948.04	131.81714
3949.97	131.87857
3951.89	131.81286
3953.82	131.98857
3955.74	131.92857
3957.67	131.88857
3959.59	131.88857
3961.52	131.89857
3963.44	131.89857
3965.37	131.82857
3967.29	131.78286
3969.22	131.80714
3971.14	131.78286
3973.07	131.61714
3974.99	131.66143
3976.92	131.54143
3978.84	131.66143
3980.77	131.59714
3982.69	131.56714
3984.62	131.59714
3986.54	131.57714
3988.47	131.54143
3990.39	131.60143
3992.32	131.55571
3994.24	131.54571
3996.17	131.55571
3998.09	131.53571
4000.02	131.56714
4001.94	131.57714
4003.87	131.49571
4005.79	131.51571
4007.72	131.53571
4009.64	131.51143
4011.57	131.43
4013.49	131.59714
4015.42	131.64714
4017.34	131.58143
4019.27	131.56714
4021.19	131.55571
4023.12	131.61714
4025.04	131.61714
4026.97	131.45571
4028.89	131.57714
4030.82	131.69286
4032.74	131.49143
4034.67	131.64143
4036.59	131.53571
4038.52	131.56714
4040.44	131.58143
4042.37	131.56143
4044.29	131.43571
4046.22	131.60143
4048.14	131.51143
4050.07	131.57714
4051.99	131.52571
4053.92	131.58143
4055.84	131.46571
4057.77	131.50143
4059.69	131.57143
4061.62	131.57714
4063.54	131.45143
4065.47	131.54143
4067.39	131.46571
4069.32	131.44143
4071.24	131.42
4073.17	131.39571
4075.09	131.34571
4077.02	131.42
4078.94	131.54143
4080.87	131.49143
4082.79	131.48143
4084.72	131.53571
4086.64	131.35571
4088.57	131.37571
4090.49	131.44143
4092.42	131.34
4094.34	131.33
4096.26	131.26429
4098.19	131.35571
