Wavelength	Intensity
nm	arb. units
	600° C
552	116.118
552.25	112.8405
552.5	109.563
552.75	106.2855
553	103.008
553.25	104.8805
553.5	106.753
553.75	108.6255
554	110.498
554.25	113.118
554.5	115.738
554.75	118.358
555	120.978
555.25	118.358
555.5	115.738
555.75	113.118
556	110.498
556.25	111.528
556.5	112.558
556.75	113.588
557	114.618
557.25	115.648
557.5	116.678
557.75	117.708
558	118.738
558.25	116.023
558.5	113.308
558.75	110.593
559	107.878
559.25	111.0605
559.5	114.243
559.75	117.4255
560	120.608
560.25	122.1055
560.5	123.603
560.75	125.1005
561	126.598
561.25	124.258
561.5	121.918
561.75	119.578
562	117.238
562.25	115.4605
562.5	113.683
562.75	111.9055
563	110.128
563.25	111.5305
563.5	112.933
563.75	114.3355
564	115.738
564.25	113.6805
564.5	111.623
564.75	109.5655
565	107.508
565.25	108.443
565.5	109.378
565.75	110.313
566	111.248
566.25	113.308
566.5	115.368
566.75	117.428
567	119.488
567.25	118.5505
567.5	117.613
567.75	116.6755
568	115.738
568.25	116.393
568.5	117.048
568.75	117.703
569	118.358
569.25	117.9855
569.5	117.613
569.75	117.2405
570	116.868
570.25	117.428
570.5	117.988
570.75	118.548
571	119.108
571.25	119.108
571.5	119.108
571.75	119.108
572	119.108
572.25	121.168
572.5	123.228
572.75	125.288
573	127.348
573.25	126.5055
573.5	125.663
573.75	124.8205
574	123.978
574.25	123.1355
574.5	122.293
574.75	121.4505
575	120.608
575.25	121.543
575.5	122.478
575.75	123.413
576	124.348
576.25	125.5655
576.5	126.783
576.75	128.0005
577	129.218
577.25	130.248
577.5	131.278
577.75	132.308
578	133.338
578.25	135.4905
578.5	137.643
578.75	139.7955
579	141.948
579.25	142.7905
579.5	143.633
579.75	144.4755
580	145.318
580.25	149.4355
580.5	153.553
580.75	157.6705
581	161.788
581.25	161.133
581.5	160.478
581.75	159.823
582	159.168
582.25	158.3255
582.5	157.483
582.75	156.6405
583	155.798
583.25	160.2905
583.5	164.783
583.75	169.2755
584	173.768
584.25	174.0505
584.5	174.333
584.75	174.6155
585	174.898
585.25	177.9855
585.5	181.073
585.75	184.1605
586	187.248
586.25	189.2155
586.5	191.183
586.75	193.1505
587	195.118
587.25	197.1755
587.5	199.233
587.75	201.2905
588	203.348
588.25	205.313
588.5	207.278
588.75	209.243
589	211.208
589.25	214.4855
589.5	217.763
589.75	221.0405
590	224.318
590.25	223.7555
590.5	223.193
590.75	222.6305
591	222.068
591.25	226.0005
591.5	229.933
591.75	233.8655
592	237.798
592.25	237.423
592.5	237.048
592.75	236.673
593	236.298
593.25	238.8255
593.5	241.353
593.75	243.8805
594	246.408
594.25	245.9405
594.5	245.473
594.75	245.0055
595	244.538
595.25	247.438
595.5	250.338
595.75	253.238
596	256.138
596.25	257.448
596.5	258.758
596.75	260.068
597	261.378
597.25	262.6905
597.5	264.003
597.75	265.3155
598	266.628
598.25	265.9705
598.5	265.313
598.75	264.6555
599	263.998
599.25	266.9955
599.5	269.993
599.75	272.9905
600	275.988
600.25	273.648
600.5	271.308
600.75	268.968
601	266.628
601.25	267.00175
601.5	267.3755
601.75	267.74925
602	268.123
602.25	268.49675
602.5	268.8705
602.75	269.24425
603	269.618
603.25	273.363
603.5	277.108
603.75	280.853
604	284.598
604.25	282.258
604.5	279.918
604.75	277.578
605	275.238
605.25	279.3555
605.5	283.473
605.75	287.5905
606	291.708
606.25	287.778
606.5	283.848
606.75	279.918
607	275.988
607.25	280.1055
607.5	284.223
607.75	288.3405
608	292.458
608.25	290.493
608.5	288.528
608.75	286.563
609	284.598
609.25	285.533
609.5	286.468
609.75	287.403
610	288.338
610.25	288.8055
610.5	289.273
610.75	289.7405
611	290.208
611.25	288.8055
611.5	287.403
611.75	286.0005
612	284.598
612.25	284.0355
612.5	283.473
612.75	282.9105
613	282.348
613.25	282.9105
613.5	283.473
613.75	284.0355
614	284.598
614.25	280.6655
614.5	276.733
614.75	272.8005
615	268.868
615.25	270.0855
615.5	271.303
615.75	272.5205
616	273.738
616.25	272.708
616.5	271.678
616.75	270.648
617	269.618
617.25	270.8355
617.5	272.053
617.75	273.2705
618	274.488
618.25	270.183
618.5	265.878
618.75	261.573
619	257.268
619.25	260.918
619.5	264.568
619.75	268.218
620	271.868
620.25	269.9005
620.5	267.933
620.75	265.9655
621	263.998
621.25	264.2805
621.5	264.563
621.75	264.8455
622	265.128
622.25	262.8805
622.5	260.633
622.75	258.3855
623	256.138
623.25	259.228
623.5	262.318
623.75	265.408
624	268.498
624.25	267.373
624.5	266.248
624.75	265.123
625	263.998
625.25	263.6255
625.5	263.253
625.75	262.8805
626	262.508
626.25	262.9755
626.5	263.443
626.75	263.9105
627	264.378
627.25	262.693
627.5	261.008
627.75	259.323
628	257.638
628.25	258.013
628.5	258.388
628.75	258.763
629	259.138
629.25	258.6705
629.5	258.203
629.75	257.7355
630	257.268
630.25	257.828
630.5	258.388
630.75	258.948
631	259.508
631.25	258.94675
631.5	258.3855
631.75	257.82425
632	257.263
632.25	256.70175
632.5	256.1405
632.75	255.57925
633	255.018
633.25	255.393
633.5	255.768
633.75	256.143
634	256.518
634.25	257.828
634.5	259.138
634.75	260.448
635	261.758
635.25	263.6305
635.5	265.503
635.75	267.3755
636	269.248
636.25	266.0655
636.5	262.883
636.75	259.7005
637	256.518
637.25	256.2355
637.5	255.953
637.75	255.6705
638	255.388
638.25	257.6355
638.5	259.883
638.75	262.1305
639	264.378
639.25	265.688
639.5	266.998
639.75	268.308
640	269.618
640.25	270.0855
640.5	270.553
640.75	271.0205
641	271.488
641.25	271.3955
641.5	271.303
641.75	271.2105
642	271.118
642.25	273.6455
642.5	276.173
642.75	278.7005
643	281.228
643.25	287.0305
643.5	292.833
643.75	298.6355
644	304.438
644.25	308.463
644.5	312.488
644.75	316.513
645	320.538
645.25	324.0005
645.5	327.463
645.75	330.9255
646	334.388
646.25	338.9755
646.5	343.563
646.75	348.1505
647	352.738
647.25	361.2555
647.5	369.773
647.75	378.2905
648	386.808
648.25	394.108
648.5	401.408
648.75	408.708
649	416.008
649.25	424.993
649.5	433.978
649.75	442.963
650	451.948
650.25	461.308
650.5	470.668
650.75	480.028
651	489.388
651.25	499.9655
651.5	510.543
651.75	521.1205
652	531.698
652.25	544.708
652.5	557.718
652.75	570.728
653	583.738
653.25	597.9655
653.5	612.193
653.75	626.4205
654	640.648
654.25	655.718
654.5	670.788
654.75	685.858
655	700.928
655.25	714.968
655.5	729.008
655.75	743.048
656	757.088
656.25	777.493
656.5	797.898
656.75	818.303
657	838.708
657.25	851.718
657.5	864.728
657.75	877.738
658	890.748
658.25	909.468
658.5	928.188
658.75	946.908
659	965.628
659.25	980.978
659.5	996.328
659.75	1011.678
660	1027.028
660.25	1043.9705
660.5	1060.913
660.75	1077.8555
661	1094.798
661.25	1106.4955
661.5	1118.193
661.75	1129.8905
662	1141.588
662.25	1148.88925
662.5	1156.1905
662.75	1163.49175
663	1170.793
663.25	1178.09425
663.5	1185.3955
663.75	1192.69675
664	1199.998
664.25	1211.323
664.5	1222.648
664.75	1233.973
665	1245.298
665.25	1255.968
665.5	1266.638
665.75	1277.308
666	1287.978
666.25	1294.343
666.5	1300.708
666.75	1307.073
667	1313.438
667.25	1322.798
667.5	1332.158
667.75	1341.518
668	1350.878
668.25	1354.7155
668.5	1358.553
668.75	1362.3905
669	1366.228
669.25	1371.8455
669.5	1377.463
669.75	1383.0805
670	1388.698
670.25	1391.2255
670.5	1393.753
670.75	1396.2805
671	1398.808
671.25	1402.6455
671.5	1406.483
671.75	1410.3205
672	1414.158
672.25	1409.758
672.5	1405.358
672.75	1400.958
673	1396.558
673.25	1397.1205
673.5	1397.683
673.75	1398.2455
674	1398.808
674.25	1399.2755
674.5	1399.743
674.75	1400.2105
675	1400.678
675.25	1397.308
675.5	1393.938
675.75	1390.568
676	1387.198
676.25	1381.583
676.5	1375.968
676.75	1370.353
677	1364.738
677.25	1358.8405
677.5	1352.943
677.75	1347.0455
678	1341.148
678.25	1330.9455
678.5	1320.743
678.75	1310.5405
679	1300.338
679.25	1291.1655
679.5	1281.993
679.75	1272.8205
680	1263.648
680.25	1254.1005
680.5	1244.553
680.75	1235.0055
681	1225.458
681.25	1216.0055
681.5	1206.553
681.75	1197.1005
682	1187.648
682.25	1174.543
682.5	1161.438
682.75	1148.333
683	1135.228
683.25	1121.468
683.5	1107.708
683.75	1093.948
684	1080.188
684.25	1068.488
684.5	1056.788
684.75	1045.088
685	1033.388
685.25	1020.1905
685.5	1006.993
685.75	993.7955
686	980.598
686.25	966.558
686.5	952.518
686.75	938.478
687	924.438
687.25	912.9255
687.5	901.413
687.75	889.9005
688	878.388
688.25	866.5955
688.5	854.803
688.75	843.0105
689	831.218
689.25	820.548
689.5	809.878
689.75	799.208
690	788.538
690.25	778.7105
690.5	768.883
690.75	759.0555
691	749.228
691.25	740.523
691.5	731.818
691.75	723.113
692	714.408
692.25	705.7955
692.5	697.183
692.75	688.5705
693	679.958
693.25	673.593
693.5	667.228
693.75	660.863
694	654.498
694.25	646.7305
694.5	638.963
694.75	631.1955
695	623.428
695.25	621.13425
695.5	618.8405
695.75	616.54675
696	614.253
696.25	611.95925
696.5	609.6655
696.75	607.37175
697	605.078
697.25	604.423
697.5	603.768
697.75	603.113
698	602.458
698.25	596.6555
698.5	590.853
698.75	585.0505
699	579.248
699.25	576.533
699.5	573.818
699.75	571.103
700	568.388
700.25	566.6105
700.5	564.833
700.75	563.0555
701	561.278
701.25	558.0955
701.5	554.913
701.75	551.7305
702	548.548
702.25	548.0805
702.5	547.613
702.75	547.1455
703	546.678
703.25	543.4005
703.5	540.123
703.75	536.8455
704	533.568
704.25	527.953
704.5	522.338
704.75	516.723
705	511.108
705.25	511.2955
705.5	511.483
705.75	511.6705
706	511.858
706.25	510.6405
706.5	509.423
706.75	508.2055
707	506.988
707.25	504.1805
707.5	501.373
707.75	498.5655
708	495.758
708.25	495.663
708.5	495.568
708.75	495.473
709	495.378
709.25	487.6105
709.5	479.843
709.75	472.0755
710	464.308
710.25	467.4905
710.5	470.673
710.75	473.8555
711	477.038
711.25	474.603
711.5	472.168
711.75	469.733
712	467.298
712.25	465.613
712.5	463.928
712.75	462.243
713	460.558
713.25	458.4055
713.5	456.253
713.75	454.1005
714	451.948
714.25	447.923
714.5	443.898
714.75	439.873
715	435.848
715.25	433.978
715.5	432.108
715.75	430.238
716	428.368
716.25	427.4305
716.5	426.493
716.75	425.5555
717	424.618
717.25	420.033
717.5	415.448
717.75	410.863
718	406.278
718.25	407.588
718.5	408.898
718.75	410.208
719	411.518
719.25	408.428
719.5	405.338
719.75	402.248
720	399.158
720.25	398.3155
720.5	397.473
720.75	396.6305
721	395.788
721.25	394.853
721.5	393.918
721.75	392.983
722	392.048
722.25	393.8255
722.5	395.603
722.75	397.3805
723	399.158
723.25	394.3855
723.5	389.613
723.75	384.8405
724	380.068
724.25	380.1605
724.5	380.253
724.75	380.3455
725	380.438
725.25	380.438
725.5	380.438
725.75	380.438
726	380.438
726.25	383.9955
726.5	387.553
726.75	391.1105
727	394.668
727.25	393.8255
727.5	392.983
727.75	392.1405
728	391.298
728.25	394.8555
728.5	398.413
728.75	401.9705
729	405.528
729.25	410.0205
729.5	414.513
729.75	419.0055
730	423.498
730.25	423.73175
730.5	423.9655
730.75	424.19925
731	424.433
731.25	424.66675
731.5	424.9005
731.75	425.13425
732	425.368
732.25	429.113
732.5	432.858
732.75	436.603
733	440.348
733.25	444.0905
733.5	447.833
733.75	451.5755
734	455.318
734.25	459.1555
734.5	462.993
734.75	466.8305
735	470.668
735.25	480.403
735.5	490.138
735.75	499.873
736	509.608
736.25	511.1055
736.5	512.603
736.75	514.1005
737	515.598
737.25	525.5205
737.5	535.443
737.75	545.3655
738	555.288
738.25	560.998
738.5	566.708
738.75	572.418
739	578.128
739.25	587.9555
739.5	597.783
739.75	607.6105
740	617.438
740.25	622.3055
740.5	627.173
740.75	632.0405
741	636.908
741.25	646.3605
741.5	655.813
741.75	665.2655
742	674.718
742.25	685.388
742.5	696.058
742.75	706.728
743	717.398
743.25	728.3505
743.5	739.303
743.75	750.2555
744	761.208
744.25	768.3205
744.5	775.433
744.75	782.5455
745	789.658
745.25	804.728
745.5	819.798
745.75	834.868
746	849.938
746.25	861.543
746.5	873.148
746.75	884.753
747	896.358
747.25	910.2105
747.5	924.063
747.75	937.9155
748	951.768
748.25	964.4055
748.5	977.043
748.75	989.6805
749	1002.318
749.25	1020.1005
749.5	1037.883
749.75	1055.6655
750	1073.448
750.25	1087.208
750.5	1100.968
750.75	1114.728
751	1128.488
751.25	1150.953
751.5	1173.418
751.75	1195.883
752	1218.348
752.25	1233.4155
752.5	1248.483
752.75	1263.5505
753	1278.618
753.25	1300.708
753.5	1322.798
753.75	1344.888
754	1366.978
754.25	1384.483
754.5	1401.988
754.75	1419.493
755	1436.998
755.25	1460.1155
755.5	1483.233
755.75	1506.3505
756	1529.468
756.25	1543.603
756.5	1557.738
756.75	1571.873
757	1586.008
757.25	1612.028
757.5	1638.048
757.75	1664.068
758	1690.088
758.25	1707.498
758.5	1724.908
758.75	1742.318
759	1759.728
759.25	1781.6305
759.5	1803.533
759.75	1825.4355
760	1847.338
760.25	1863.623
760.5	1879.908
760.75	1896.193
761	1912.478
761.25	1932.228
761.5	1951.978
761.75	1971.728
762	1991.478
762.25	2004.3955
762.5	2017.313
762.75	2030.2305
763	2043.148
763.25	2061.9605
763.5	2080.773
763.75	2099.5855
764	2118.398
764.25	2128.508
764.5	2138.618
764.75	2148.728
765	2158.838
765.25	2171.848
765.5	2184.858
765.75	2197.868
766	2210.878
766.25	2214.0605
766.5	2217.243
766.75	2220.4255
767	2223.608
767.25	2231.938
767.5	2240.268
767.75	2248.598
768	2256.928
768.25	2258.7055
768.5	2260.483
768.75	2262.2605
769	2264.038
769.25	2267.688
769.5	2271.338
769.75	2274.988
770	2278.638
770.25	2278.77925
770.5	2278.9205
770.75	2279.06175
771	2279.203
771.25	2279.34425
771.5	2279.4855
771.75	2279.62675
772	2279.768
772.25	2278.738
772.5	2277.708
772.75	2276.678
773	2275.648
773.25	2274.1505
773.5	2272.653
773.75	2271.1555
774	2269.658
774.25	2264.5105
774.5	2259.363
774.75	2254.2155
775	2249.068
775.25	2239.4255
775.5	2229.783
775.75	2220.1405
776	2210.498
776.25	2206.7555
776.5	2203.013
776.75	2199.2705
777	2195.528
777.25	2182.3305
777.5	2169.133
777.75	2155.9355
778	2142.738
778.25	2131.1305
778.5	2119.523
778.75	2107.9155
779	2096.308
779.25	2078.898
779.5	2061.488
779.75	2044.078
780	2026.668
780.25	2018.1505
780.5	2009.633
780.75	2001.1155
781	1992.598
781.25	1973.7855
781.5	1954.973
781.75	1936.1605
782	1917.348
782.25	1900.5005
782.5	1883.653
782.75	1866.8055
783	1849.958
783.25	1829.3655
783.5	1808.773
783.75	1788.1805
784	1767.588
784.25	1750.7405
784.5	1733.893
784.75	1717.0455
785	1700.198
785.25	1677.173
785.5	1654.148
785.75	1631.123
786	1608.098
786.25	1595.5555
786.5	1583.013
786.75	1570.4705
787	1557.928
787.25	1534.058
787.5	1510.188
787.75	1486.318
788	1462.448
788.25	1447.0055
788.5	1431.563
788.75	1416.1205
789	1400.678
789.25	1379.523
789.5	1358.368
789.75	1337.213
790	1316.058
790.25	1302.5805
790.5	1289.103
790.75	1275.6255
791	1262.148
791.25	1244.833
791.5	1227.518
791.75	1210.203
792	1192.888
792.25	1180.438
792.5	1167.988
792.75	1155.538
793	1143.088
793.25	1128.2055
793.5	1113.323
793.75	1098.4405
794	1083.558
794.25	1075.323
794.5	1067.088
794.75	1058.853
795	1050.618
795.25	1038.7305
795.5	1026.843
795.75	1014.9555
796	1003.068
796.25	1000.8205
796.5	998.573
796.75	996.3255
797	994.078
797.25	986.028
797.5	977.978
797.75	969.928
798	961.878
798.25	958.323
798.5	954.768
798.75	951.213
799	947.658
799.25	940.8255
799.5	933.993
799.75	927.1605
800	920.328
800.25	923.228
800.5	926.128
800.75	929.028
801	931.928
801.25	927.343
801.5	922.758
801.75	918.173
802	913.588
802.25	914.0555
802.5	914.523
802.75	914.9905
803	915.458
803.25	914.8955
803.5	914.333
803.75	913.7705
804	913.208
804.25	915.173
804.5	917.138
804.75	919.103
805	921.068
805.25	919.853
805.5	918.638
805.75	917.423
806	916.208
806.25	922.478
806.5	928.748
806.75	935.018
807	941.288
807.25	942.8805
807.5	944.473
807.75	946.0655
808	947.658
808.25	956.4555
808.5	965.253
808.75	974.0505
809	982.848
809.25	984.158
809.5	985.468
809.75	986.778
810	988.088
810.25	995.9505
810.5	1003.813
810.75	1011.6755
811	1019.538
811.25	1023.188
811.5	1026.838
811.75	1030.488
812	1034.138
812.25	1038.258
812.5	1042.378
812.75	1046.498
813	1050.618
813.25	1055.7655
813.5	1060.913
813.75	1066.0605
814	1071.208
814.25	1076.168
814.5	1081.128
814.75	1086.088
815	1091.048
815.25	1090.67425
815.5	1090.3005
815.75	1089.92675
816	1089.553
816.25	1089.17925
816.5	1088.8055
816.75	1088.43175
817	1088.058
817.25	1093.5805
817.5	1099.103
817.75	1104.6255
818	1110.148
818.25	1110.333
818.5	1110.518
818.75	1110.703
819	1110.888
819.25	1116.693
819.5	1122.498
819.75	1128.303
820	1134.108
820.25	1132.798
820.5	1131.488
820.75	1130.178
821	1128.868
821.25	1128.118
821.5	1127.368
821.75	1126.618
822	1125.868
822.25	1124.558
822.5	1123.248
822.75	1121.938
823	1120.628
823.25	1125.028
823.5	1129.428
823.75	1133.828
824	1138.228
824.25	1135.6055
824.5	1132.983
824.75	1130.3605
825	1127.738
825.25	1127.2705
825.5	1126.803
825.75	1126.3355
826	1125.868
826.25	1121.7505
826.5	1117.633
826.75	1113.5155
827	1109.398
827.25	1109.398
827.5	1109.398
827.75	1109.398
828	1109.398
828.25	1106.028
828.5	1102.658
828.75	1099.288
829	1095.918
829.25	1092.7355
829.5	1089.553
829.75	1086.3705
830	1083.188
830.25	1079.538
830.5	1075.888
830.75	1072.238
831	1068.588
831.25	1063.533
831.5	1058.478
831.75	1053.423
832	1048.368
832.25	1044.8105
832.5	1041.253
832.75	1037.6955
833	1034.138
833.25	1029.553
833.5	1024.968
833.75	1020.383
834	1015.798
834.25	1011.3055
834.5	1006.813
834.75	1002.3205
835	997.828
835.25	989.5905
835.5	981.353
835.75	973.1155
836	964.878
836.25	958.7005
836.5	952.523
836.75	946.3455
837	940.168
837.25	935.863
837.5	931.558
837.75	927.253
838	922.948
838.25	918.268
838.5	913.588
838.75	908.908
839	904.228
839.25	896.553
839.5	888.878
839.75	881.203
840	873.528
840.25	868.1905
840.5	862.853
840.75	857.5155
841	852.178
841.25	847.313
841.5	842.448
841.75	837.583
842	832.718
842.25	825.8855
842.5	819.053
842.75	812.2205
843	805.388
843.25	799.303
843.5	793.218
843.75	787.133
844	781.048
844.25	777.2105
844.5	773.373
844.75	769.5355
845	765.698
845.25	761.393
845.5	757.088
845.75	752.783
846	748.478
846.25	743.8905
846.5	739.303
846.75	734.7155
847	730.128
847.25	725.168
847.5	720.208
847.75	715.248
848	710.288
848.25	707.198
848.5	704.108
848.75	701.018
849	697.928
849.25	694.653
849.5	691.378
849.75	688.103
850	684.828
850.25	678.838
850.5	672.848
850.75	666.858
851	660.868
851.25	656.468
851.5	652.068
851.75	647.668
852	643.268
852.25	643.1755
852.5	643.083
852.75	642.9905
853	642.898
853.25	640.088
853.5	637.278
853.75	634.468
854	631.658
854.25	628.1955
854.5	624.733
854.75	621.2705
855	617.808
855.25	615.843
855.5	613.878
855.75	611.913
856	609.948
856.25	607.233
856.5	604.518
856.75	601.803
857	599.088
857.25	596.6555
857.5	594.223
857.75	591.7905
858	589.358
858.25	586.7355
858.5	584.113
858.75	581.4905
859	578.868
859.25	577.7455
859.5	576.623
859.75	575.5005
860	574.378
860.25	572.038
860.5	569.698
860.75	567.358
861	565.018
861.25	562.1155
861.5	559.213
861.75	556.3105
862	553.408
862.25	552.193
862.5	550.978
862.75	549.763
863	548.548
863.25	547.9855
863.5	547.423
863.75	546.8605
864	546.298
864.25	546.4855
864.5	546.673
864.75	546.8605
865	547.048
865.25	547.048
865.5	547.048
865.75	547.048
866	547.048
866.25	546.018
866.5	544.988
866.75	543.958
867	542.928
867.25	547.608
867.5	552.288
867.75	556.968
868	561.648
868.25	558.8405
868.5	556.033
868.75	553.2255
869	550.418
869.25	555.8455
869.5	561.273
869.75	566.7005
870	572.128
870.25	571.09925
870.5	570.0705
870.75	569.04175
871	568.013
871.25	566.98425
871.5	565.9555
871.75	564.92675
872	563.898
872.25	566.4255
872.5	568.953
872.75	571.4805
873	574.008
873.25	576.908
873.5	579.808
873.75	582.708
874	585.608
874.25	588.603
874.5	591.598
874.75	594.593
875	597.588
875.25	602.363
875.5	607.138
875.75	611.913
876	616.688
876.25	621.5555
876.5	626.423
876.75	631.2905
877	636.158
877.25	641.5855
877.5	647.013
877.75	652.4405
878	657.868
878.25	662.0805
878.5	666.293
878.75	670.5055
879	674.718
879.25	682.5805
879.5	690.443
879.75	698.3055
880	706.168
880.25	710.3805
880.5	714.593
880.75	718.8055
881	723.018
881.25	727.2305
881.5	731.443
881.75	735.6555
882	739.868
882.25	748.5705
882.5	757.273
882.75	765.9755
883	774.678
883.25	780.2955
883.5	785.913
883.75	791.5305
884	797.148
884.25	806.413
884.5	815.678
884.75	824.943
885	834.208
885.25	838.328
885.5	842.448
885.75	846.568
886	850.688
886.25	862.948
886.5	875.208
886.75	887.468
887	899.728
887.25	901.2255
887.5	902.723
887.75	904.2205
888	905.718
888.25	915.3605
888.5	925.003
888.75	934.6455
889	944.288
889.25	949.3405
889.5	954.393
889.75	959.4455
890	964.498
890.25	971.8005
890.5	979.103
890.75	986.4055
891	993.708
891.25	999.8855
891.5	1006.063
891.75	1012.2405
892	1018.418
892.25	1026.2805
892.5	1034.143
892.75	1042.0055
893	1049.868
893.25	1052.3955
893.5	1054.923
893.75	1057.4505
894	1059.978
894.25	1068.963
894.5	1077.948
894.75	1086.933
895	1095.918
895.25	1098.3505
895.5	1100.783
895.75	1103.2155
896	1105.648
896.25	1113.043
896.5	1120.438
896.75	1127.833
897	1135.228
897.25	1137.193
897.5	1139.158
897.75	1141.123
898	1143.088
898.25	1147.9555
898.5	1152.823
898.75	1157.6905
899	1162.558
899.25	1163.0255
899.5	1163.493
899.75	1163.9605
900	1164.428
900.25	1172.0105
900.5	1179.593
900.75	1187.1755
901	1194.758
901.25	1194.758
901.5	1194.758
901.75	1194.758
902	1194.758
902.25	1201.498
902.5	1208.238
902.75	1214.978
903	1221.718
903.25	1221.998
903.5	1222.278
903.75	1222.558
904	1222.838
904.25	1223.118
904.5	1223.398
904.75	1223.678
905	1223.958
905.25	1225.643
905.5	1227.328
905.75	1229.013
906	1230.698
906.25	1237.5305
906.5	1244.363
906.75	1251.1955
907	1258.028
907.25	1254.378
907.5	1250.728
907.75	1247.078
908	1243.428
908.25	1244.458
908.5	1245.488
908.75	1246.518
909	1247.548
909.25	1246.798
909.5	1246.048
909.75	1245.298
910	1244.548
910.25	1241.368
910.5	1238.188
910.75	1235.008
911	1231.828
911.25	1234.073
911.5	1236.318
911.75	1238.563
912	1240.808
912.25	1238.468
912.5	1236.128
912.75	1233.788
913	1231.448
913.25	1227.703
913.5	1223.958
913.75	1220.213
914	1216.468
914.25	1214.128
914.5	1211.788
914.75	1209.448
915	1207.108
915.25	1199.433
915.5	1191.758
915.75	1184.083
916	1176.408
916.25	1176.9705
916.5	1177.533
916.75	1178.0955
917	1178.658
917.25	1170.8905
917.5	1163.123
917.75	1155.3555
918	1147.588
918.25	1147.6805
918.5	1147.773
918.75	1147.8655
919	1147.958
919.25	1139.533
919.5	1131.108
919.75	1122.683
920	1114.258
920.25	1113.698
920.5	1113.138
920.75	1112.578
921	1112.018
921.25	1105.278
921.5	1098.538
921.75	1091.798
922	1085.058
922.25	1080.378
922.5	1075.698
922.75	1071.018
923	1066.338
923.25	1060.1605
923.5	1053.983
923.75	1047.8055
924	1041.628
924.25	1036.1055
924.5	1030.583
924.75	1025.0605
925	1019.538
925.25	1016.168
925.5	1012.798
925.75	1009.428
926	1006.058
926.25	998.9455
926.5	991.833
926.75	984.7205
927	977.608
927.25	971.3355
927.5	965.063
927.75	958.7905
928	952.518
928.25	945.1255
928.5	937.733
928.75	930.3405
929	922.948
929.25	916.9555
929.5	910.963
929.75	904.9705
930	898.978
930.25	892.988
930.5	886.998
930.75	881.008
931	875.018
931.25	868.8405
931.5	862.663
931.75	856.4855
932	850.308
932.25	843.8505
932.5	837.393
932.75	830.9355
933	824.478
933.25	817.083
933.5	809.688
933.75	802.293
934	794.898
934.25	791.1555
934.5	787.413
934.75	783.6705
935	779.928
935.25	773.0005
935.5	766.073
935.75	759.1455
936	752.218
936.25	747.163
936.5	742.108
936.75	737.053
937	731.998
937.25	724.5105
937.5	717.023
937.75	709.5355
938	702.048
938.25	700.1755
938.5	698.303
938.75	696.4305
939	694.558
939.25	688.4755
939.5	682.393
939.75	676.3105
940	670.228
940.25	666.108
940.5	661.988
940.75	657.868
941	653.748
941.25	648.133
941.5	642.518
941.75	636.903
942	631.288
942.25	629.4155
942.5	627.543
942.75	625.6705
943	623.798
943.25	619.868
943.5	615.938
943.75	612.008
944	608.078
944.25	606.2055
944.5	604.333
944.75	602.4605
945	600.588
945.25	600.213
945.5	599.838
945.75	599.463
946	599.088
946.25	598.99425
946.5	598.9005
946.75	598.80675
947	598.713
947.25	598.61925
947.5	598.5255
947.75	598.43175
948	598.338
948.25	593.658
948.5	588.978
948.75	584.298
949	579.618
949.25	580.5555
949.5	581.493
949.75	582.4305
950	583.368
950.25	582.5255
950.5	581.683
950.75	580.8405
951	579.998
951.25	578.968
951.5	577.938
951.75	576.908
952	575.878
952.25	574.3805
952.5	572.883
952.75	571.3855
953	569.888
953.25	570.448
953.5	571.008
953.75	571.568
954	572.128
954.25	572.503
954.5	572.878
954.75	573.253
955	573.628
955.25	574.5655
955.5	575.503
955.75	576.4405
956	577.378
956.25	578.4055
956.5	579.433
956.75	580.4605
957	581.488
957.25	579.523
957.5	577.558
957.75	575.593
958	573.628
958.25	573.628
958.5	573.628
958.75	573.628
959	573.628
959.25	576.063
959.5	578.498
959.75	580.933
960	583.368
960.25	584.303
960.5	585.238
960.75	586.173
961	587.108
961.25	586.828
961.5	586.548
961.75	586.268
962	585.988
962.25	589.543
962.5	593.098
962.75	596.653
963	600.208
963.25	599.7405
963.5	599.273
963.75	598.8055
964	598.338
964.25	598.713
964.5	599.088
964.75	599.463
965	599.838
965.25	600.493
965.5	601.148
965.75	601.803
966	602.458
966.25	602.833
966.5	603.208
966.75	603.583
967	603.958
967.25	605.548
967.5	607.138
967.75	608.728
968	610.318
968.25	610.973
968.5	611.628
968.75	612.283
969	612.938
969.25	613.408
969.5	613.878
969.75	614.348
970	614.818
970.25	614.6305
970.5	614.443
970.75	614.2555
971	614.068
971.25	612.1005
971.5	610.133
971.75	608.1655
972	606.198
972.25	606.7605
972.5	607.323
972.75	607.8855
973	608.448
973.25	609.0105
973.5	609.573
973.75	610.1355
974	610.698
974.25	611.4455
974.5	612.193
974.75	612.9405
975	613.688
975.25	611.1605
975.5	608.633
975.75	606.1055
976	603.578
976.25	604.8905
976.5	606.203
976.75	607.5155
977	608.828
977.25	608.5455
977.5	608.263
977.75	607.9805
978	607.698
978.25	601.708
978.5	595.718
978.75	589.728
979	583.738
979.25	587.2005
979.5	590.663
979.75	594.1255
980	597.588
980.25	592.0655
980.5	586.543
980.75	581.0205
981	575.498
981.25	576.9955
981.5	578.493
981.75	579.9905
982	581.488
982.25	580.4605
982.5	579.433
982.75	578.4055
983	577.378
983.25	574.288
983.5	571.198
983.75	568.108
984	565.018
984.25	563.2405
984.5	561.463
984.75	559.6855
985	557.908
985.25	558.938
985.5	559.968
985.75	560.998
986	562.028
986.25	558.4705
986.5	554.913
986.75	551.3555
987	547.798
987.25	545.833
987.5	543.868
987.75	541.903
988	539.938
988.25	535.913
988.5	531.888
988.75	527.863
989	523.838
989.25	523.5555
989.5	523.273
989.75	522.9905
990	522.708
990.25	520.6505
990.5	518.593
990.75	516.5355
991	514.478
991.25	509.703
991.5	504.928
991.75	500.153
992	495.378
992.25	495.5655
992.5	495.753
992.75	495.9405
993	496.128
993.25	493.3205
993.5	490.513
993.75	487.7055
994	484.898
994.25	481.9955
994.5	479.093
994.75	476.1905
995	473.288
995.25	474.318
995.5	475.348
995.75	476.378
996	477.408
996.25	473.478
996.5	469.548
996.75	465.618
997	461.688
997.25	463.5605
997.5	465.433
997.75	467.3055
998	469.178
998.25	465.9955
998.5	462.813
998.75	459.6305
999	456.448
